'Elapsed time','ECG'
'seconds','mV'
0.000,-0.140
0.004,-0.130
0.008,-0.117
0.012,-0.102
0.016,-0.075
0.020,-0.048
0.024,0.003
0.028,0.025
0.032,0.072
0.036,0.102
0.040,0.147
0.044,0.195
0.048,0.255
0.052,0.282
0.056,0.312
0.060,0.343
0.064,0.343
0.068,0.338
0.072,0.328
0.076,0.315
0.080,0.292
0.084,0.270
0.088,0.228
0.092,0.172
0.096,0.105
0.100,0.055
0.104,0.007
0.108,-0.022
0.112,-0.050
0.116,-0.065
0.120,-0.072
0.124,-0.100
0.128,-0.115
0.132,-0.140
0.136,-0.160
0.140,-0.168
0.144,-0.165
0.148,-0.170
0.152,-0.147
0.156,-0.152
0.160,-0.168
0.164,-0.175
0.168,-0.170
0.172,-0.175
0.176,-0.188
0.180,-0.180
0.184,-0.168
0.188,-0.168
0.192,-0.172
0.196,-0.180
0.200,-0.188
0.204,-0.190
0.208,-0.190
0.212,-0.193
0.216,-0.185
0.220,-0.172
0.224,-0.193
0.228,-0.182
0.232,-0.200
0.236,-0.200
0.240,-0.207
0.244,-0.205
0.248,-0.200
0.252,-0.190
0.256,-0.190
0.260,-0.185
0.264,-0.198
0.268,-0.212
0.272,-0.203
0.276,-0.212
0.280,-0.210
0.284,-0.200
0.288,-0.193
0.292,-0.200
0.296,-0.188
0.300,-0.200
0.304,-0.203
0.308,-0.210
0.312,-0.210
0.316,-0.198
0.320,-0.190
0.324,-0.177
0.328,-0.175
0.332,-0.185
0.336,-0.188
0.340,-0.185
0.344,-0.193
0.348,-0.185
0.352,-0.172
0.356,-0.177
0.360,-0.175
0.364,-0.172
0.368,-0.188
0.372,-0.198
0.376,-0.188
0.380,-0.175
0.384,-0.165
0.388,-0.158
0.392,-0.158
0.396,-0.165
0.400,-0.172
0.404,-0.170
0.408,-0.168
0.412,-0.170
0.416,-0.160
0.420,-0.150
0.424,-0.140
0.428,-0.147
0.432,-0.142
0.436,-0.160
0.440,-0.160
0.444,-0.152
0.448,-0.130
0.452,-0.117
0.456,-0.113
0.460,-0.107
0.464,-0.115
0.468,-0.110
0.472,-0.105
0.476,-0.100
0.480,-0.095
0.484,-0.080
0.488,-0.075
0.492,-0.083
0.496,-0.107
0.500,-0.133
0.504,-0.150
0.508,-0.140
0.512,-0.130
0.516,-0.115
0.520,-0.110
0.524,-0.107
0.528,-0.117
0.532,-0.128
0.536,-0.155
0.540,-0.158
0.544,-0.155
0.548,-0.160
0.552,-0.145
0.556,-0.140
0.560,-0.138
0.564,-0.140
0.568,-0.133
0.572,-0.117
0.576,-0.115
0.580,-0.095
0.584,-0.045
0.588,0.013
0.592,0.110
0.596,0.237
0.600,0.410
0.604,0.642
0.608,0.917
0.612,1.212
0.616,1.482
0.620,1.700
0.624,1.850
0.628,1.885
0.632,1.760
0.636,1.452
0.640,0.922
0.644,0.318
0.648,-0.175
0.652,-0.410
0.656,-0.388
0.660,-0.240
0.664,-0.092
0.668,-0.048
0.672,-0.062
0.676,-0.128
0.680,-0.158
0.684,-0.172
0.688,-0.180
0.692,-0.158
0.696,-0.168
0.700,-0.180
0.704,-0.185
0.708,-0.188
0.712,-0.185
0.716,-0.177
0.720,-0.180
0.724,-0.182
0.728,-0.188
0.732,-0.190
0.736,-0.200
0.740,-0.203
0.744,-0.212
0.748,-0.198
0.752,-0.190
0.756,-0.190
0.760,-0.200
0.764,-0.203
0.768,-0.217
0.772,-0.207
0.776,-0.210
0.780,-0.188
0.784,-0.188
0.788,-0.182
0.792,-0.172
0.796,-0.190
0.800,-0.188
0.804,-0.182
0.808,-0.193
0.812,-0.185
0.816,-0.177
0.820,-0.152
0.824,-0.145
0.828,-0.135
0.832,-0.117
0.836,-0.090
0.840,-0.048
0.844,-0.020
0.848,0.028
0.852,0.083
0.856,0.133
0.860,0.165
0.864,0.212
0.868,0.245
0.872,0.280
0.876,0.318
0.880,0.338
0.884,0.350
0.888,0.338
0.892,0.328
0.896,0.273
0.900,0.233
0.904,0.170
0.908,0.115
0.912,0.077
0.916,0.030
0.920,0.007
0.924,-0.035
0.928,-0.075
0.932,-0.098
0.936,-0.128
0.940,-0.133
0.944,-0.138
0.948,-0.147
0.952,-0.145
0.956,-0.147
0.960,-0.155
0.964,-0.165
0.968,-0.175
0.972,-0.182
0.976,-0.182
0.980,-0.185
0.984,-0.172
0.988,-0.172
0.992,-0.160
0.996,-0.152
1.000,-0.175
1.004,-0.188
1.008,-0.190
1.012,-0.188
1.016,-0.177
1.020,-0.165
1.024,-0.168
1.028,-0.168
1.032,-0.180
1.036,-0.182
1.040,-0.185
1.044,-0.180
1.048,-0.172
1.052,-0.165
1.056,-0.160
1.060,-0.180
1.064,-0.193
1.068,-0.200
1.072,-0.203
1.076,-0.195
1.080,-0.190
1.084,-0.182
1.088,-0.180
1.092,-0.188
1.096,-0.200
1.100,-0.190
1.104,-0.190
1.108,-0.193
1.112,-0.200
1.116,-0.180
1.120,-0.177
1.124,-0.177
1.128,-0.177
1.132,-0.188
1.136,-0.198
1.140,-0.185
1.144,-0.182
1.148,-0.177
1.152,-0.165
1.156,-0.168
1.160,-0.160
1.164,-0.170
1.168,-0.180
1.172,-0.175
1.176,-0.175
1.180,-0.160
1.184,-0.155
1.188,-0.155
1.192,-0.150
1.196,-0.168
1.200,-0.155
1.204,-0.165
1.208,-0.165
1.212,-0.150
1.216,-0.155
1.220,-0.150
1.224,-0.150
1.228,-0.147
1.232,-0.165
1.236,-0.165
1.240,-0.160
1.244,-0.150
1.248,-0.140
1.252,-0.120
1.256,-0.117
1.260,-0.110
1.264,-0.110
1.268,-0.113
1.272,-0.130
1.276,-0.128
1.280,-0.125
1.284,-0.087
1.288,-0.080
1.292,-0.083
1.296,-0.090
1.300,-0.122
1.304,-0.158
1.308,-0.168
1.312,-0.155
1.316,-0.145
1.320,-0.133
1.324,-0.135
1.328,-0.125
1.332,-0.138
1.336,-0.150
1.340,-0.168
1.344,-0.168
1.348,-0.168
1.352,-0.155
1.356,-0.158
1.360,-0.158
1.364,-0.160
1.368,-0.160
1.372,-0.158
1.376,-0.155
1.380,-0.130
1.384,-0.125
1.388,-0.105
1.392,-0.077
1.396,-0.033
1.400,0.030
1.404,0.140
1.408,0.290
1.412,0.530
1.416,0.845
1.420,1.173
1.424,1.482
1.428,1.712
1.432,1.867
1.436,1.887
1.440,1.755
1.444,1.415
1.448,0.900
1.452,0.325
1.456,-0.165
1.460,-0.407
1.464,-0.400
1.468,-0.265
1.472,-0.125
1.476,-0.060
1.480,-0.077
1.484,-0.130
1.488,-0.188
1.492,-0.207
1.496,-0.220
1.500,-0.212
1.504,-0.205
1.508,-0.205
1.512,-0.200
1.516,-0.217
1.520,-0.203
1.524,-0.203
1.528,-0.215
1.532,-0.220
1.536,-0.235
1.540,-0.237
1.544,-0.230
1.548,-0.235
1.552,-0.228
1.556,-0.220
1.560,-0.225
1.564,-0.247
1.568,-0.253
1.572,-0.242
1.576,-0.242
1.580,-0.235
1.584,-0.235
1.588,-0.228
1.592,-0.237
1.596,-0.245
1.600,-0.253
1.604,-0.253
1.608,-0.255
1.612,-0.237
1.616,-0.240
1.620,-0.230
1.624,-0.223
1.628,-0.225
1.632,-0.220
1.636,-0.210
1.640,-0.210
1.644,-0.180
1.648,-0.147
1.652,-0.110
1.656,-0.075
1.660,-0.022
1.664,0.013
1.668,0.065
1.672,0.105
1.676,0.133
1.680,0.190
1.684,0.230
1.688,0.270
1.692,0.290
1.696,0.300
1.700,0.297
1.704,0.290
1.708,0.255
1.712,0.225
1.716,0.193
1.720,0.150
1.724,0.083
1.728,0.033
1.732,-0.018
1.736,-0.060
1.740,-0.102
1.744,-0.125
1.748,-0.133
1.752,-0.142
1.756,-0.160
1.760,-0.160
1.764,-0.190
1.768,-0.200
1.772,-0.200
1.776,-0.200
1.780,-0.205
1.784,-0.193
1.788,-0.195
1.792,-0.203
1.796,-0.212
1.800,-0.217
1.804,-0.220
1.808,-0.215
1.812,-0.223
1.816,-0.207
1.820,-0.203
1.824,-0.205
1.828,-0.220
1.832,-0.215
1.836,-0.230
1.840,-0.223
1.844,-0.212
1.848,-0.212
1.852,-0.210
1.856,-0.210
1.860,-0.217
1.864,-0.220
1.868,-0.235
1.872,-0.225
1.876,-0.230
1.880,-0.235
1.884,-0.228
1.888,-0.220
1.892,-0.215
1.896,-0.233
1.900,-0.240
1.904,-0.250
1.908,-0.263
1.912,-0.240
1.916,-0.245
1.920,-0.242
1.924,-0.233
1.928,-0.233
1.932,-0.235
1.936,-0.235
1.940,-0.245
1.944,-0.240
1.948,-0.217
1.952,-0.217
1.956,-0.217
1.960,-0.220
1.964,-0.225
1.968,-0.230
1.972,-0.240
1.976,-0.233
1.980,-0.217
1.984,-0.215
1.988,-0.203
1.992,-0.205
1.996,-0.203
2.000,-0.215
2.004,-0.212
2.008,-0.228
2.012,-0.217
2.016,-0.200
2.020,-0.195
2.024,-0.203
2.028,-0.193
2.032,-0.205
2.036,-0.205
2.040,-0.210
2.044,-0.203
2.048,-0.185
2.052,-0.180
2.056,-0.180
2.060,-0.182
2.064,-0.177
2.068,-0.177
2.072,-0.165
2.076,-0.168
2.080,-0.155
2.084,-0.138
2.088,-0.140
2.092,-0.142
2.096,-0.145
2.100,-0.150
2.104,-0.140
2.108,-0.130
2.112,-0.133
2.116,-0.152
2.120,-0.165
2.124,-0.168
2.128,-0.190
2.132,-0.190
2.136,-0.188
2.140,-0.195
2.144,-0.180
2.148,-0.180
2.152,-0.188
2.156,-0.185
2.160,-0.212
2.164,-0.217
2.168,-0.223
2.172,-0.220
2.176,-0.225
2.180,-0.210
2.184,-0.195
2.188,-0.177
2.192,-0.170
2.196,-0.180
2.200,-0.165
2.204,-0.130
2.208,-0.090
2.212,-0.013
2.216,0.113
2.220,0.282
2.224,0.505
2.228,0.795
2.232,1.095
2.236,1.377
2.240,1.595
2.244,1.750
2.248,1.835
2.252,1.762
2.256,1.490
2.260,1.012
2.264,0.407
2.268,-0.138
2.272,-0.443
2.276,-0.468
2.280,-0.328
2.284,-0.168
2.288,-0.087
2.292,-0.117
2.296,-0.175
2.300,-0.242
2.304,-0.263
2.308,-0.282
2.312,-0.260
2.316,-0.240
2.320,-0.242
2.324,-0.258
2.328,-0.258
2.332,-0.278
2.336,-0.278
2.340,-0.292
2.344,-0.287
2.348,-0.275
2.352,-0.278
2.356,-0.282
2.360,-0.287
2.364,-0.300
2.368,-0.305
2.372,-0.302
2.376,-0.302
2.380,-0.285
2.384,-0.290
2.388,-0.280
2.392,-0.290
2.396,-0.290
2.400,-0.300
2.404,-0.302
2.408,-0.302
2.412,-0.292
2.416,-0.287
2.420,-0.273
2.424,-0.273
2.428,-0.273
2.432,-0.280
2.436,-0.270
2.440,-0.273
2.444,-0.260
2.448,-0.235
2.452,-0.210
2.456,-0.177
2.460,-0.160
2.464,-0.130
2.468,-0.077
2.472,-0.035
2.476,0.018
2.480,0.072
2.484,0.122
2.488,0.168
2.492,0.205
2.496,0.237
2.500,0.260
2.504,0.275
2.508,0.265
2.512,0.237
2.516,0.210
2.520,0.177
2.524,0.125
2.528,0.065
2.532,0.010
2.536,-0.035
2.540,-0.077
2.544,-0.110
2.548,-0.128
2.552,-0.142
2.556,-0.160
2.560,-0.170
2.564,-0.200
2.568,-0.205
2.572,-0.205
2.576,-0.210
2.580,-0.223
2.584,-0.210
2.588,-0.210
2.592,-0.203
2.596,-0.223
2.600,-0.215
2.604,-0.223
2.608,-0.235
2.612,-0.225
2.616,-0.220
2.620,-0.212
2.624,-0.212
2.628,-0.215
2.632,-0.225
2.636,-0.228
2.640,-0.233
2.644,-0.230
2.648,-0.228
2.652,-0.217
2.656,-0.212
2.660,-0.220
2.664,-0.230
2.668,-0.233
2.672,-0.235
2.676,-0.240
2.680,-0.230
2.684,-0.217
2.688,-0.220
2.692,-0.220
2.696,-0.220
2.700,-0.237
2.704,-0.235
2.708,-0.235
2.712,-0.235
2.716,-0.228
2.720,-0.228
2.724,-0.228
2.728,-0.240
2.732,-0.233
2.736,-0.247
2.740,-0.253
2.744,-0.242
2.748,-0.230
2.752,-0.237
2.756,-0.233
2.760,-0.230
2.764,-0.240
2.768,-0.247
2.772,-0.247
2.776,-0.250
2.780,-0.233
2.784,-0.212
2.788,-0.212
2.792,-0.217
2.796,-0.220
2.800,-0.230
2.804,-0.230
2.808,-0.230
2.812,-0.215
2.816,-0.212
2.820,-0.203
2.824,-0.195
2.828,-0.205
2.832,-0.205
2.836,-0.215
2.840,-0.210
2.844,-0.185
2.848,-0.188
2.852,-0.160
2.856,-0.152
2.860,-0.150
2.864,-0.158
2.868,-0.160
2.872,-0.170
2.876,-0.155
2.880,-0.142
2.884,-0.125
2.888,-0.115
2.892,-0.125
2.896,-0.155
2.900,-0.180
2.904,-0.205
2.908,-0.205
2.912,-0.198
2.916,-0.190
2.920,-0.177
2.924,-0.177
2.928,-0.177
2.932,-0.198
2.936,-0.198
2.940,-0.223
2.944,-0.228
2.948,-0.233
2.952,-0.212
2.956,-0.203
2.960,-0.205
2.964,-0.207
2.968,-0.203
2.972,-0.205
2.976,-0.182
2.980,-0.168
2.984,-0.130
2.988,-0.050
2.992,0.048
2.996,0.175
3.000,0.347
3.004,0.600
3.008,0.902
3.012,1.205
3.016,1.455
3.020,1.663
3.024,1.800
3.028,1.845
3.032,1.725
3.036,1.390
3.040,0.873
3.044,0.265
3.048,-0.225
3.052,-0.458
3.056,-0.445
3.060,-0.290
3.064,-0.170
3.068,-0.122
3.072,-0.165
3.076,-0.225
3.080,-0.268
3.084,-0.292
3.088,-0.280
3.092,-0.278
3.096,-0.270
3.100,-0.280
3.104,-0.280
3.108,-0.290
3.112,-0.295
3.116,-0.290
3.120,-0.300
3.124,-0.290
3.128,-0.300
3.132,-0.305
3.136,-0.307
3.140,-0.320
3.144,-0.318
3.148,-0.318
3.152,-0.310
3.156,-0.320
3.160,-0.318
3.164,-0.320
3.168,-0.323
3.172,-0.328
3.176,-0.318
3.180,-0.302
3.184,-0.305
3.188,-0.297
3.192,-0.302
3.196,-0.312
3.200,-0.320
3.204,-0.312
3.208,-0.318
3.212,-0.292
3.216,-0.270
3.220,-0.255
3.224,-0.223
3.228,-0.198
3.232,-0.160
3.236,-0.125
3.240,-0.077
3.244,-0.035
3.248,0.020
3.252,0.080
3.256,0.120
3.260,0.165
3.264,0.200
3.268,0.220
3.272,0.228
3.276,0.225
3.280,0.225
3.284,0.220
3.288,0.188
3.292,0.142
3.296,0.080
3.300,0.018
3.304,-0.030
3.308,-0.077
3.312,-0.113
3.316,-0.130
3.320,-0.145
3.324,-0.160
3.328,-0.185
3.332,-0.212
3.336,-0.228
3.340,-0.228
3.344,-0.240
3.348,-0.242
3.352,-0.228
3.356,-0.235
3.360,-0.242
3.364,-0.247
3.368,-0.265
3.372,-0.268
3.376,-0.263
3.380,-0.258
3.384,-0.258
3.388,-0.250
3.392,-0.247
3.396,-0.260
3.400,-0.268
3.404,-0.268
3.408,-0.268
3.412,-0.260
3.416,-0.245
3.420,-0.242
3.424,-0.240
3.428,-0.247
3.432,-0.250
3.436,-0.265
3.440,-0.273
3.444,-0.263
3.448,-0.263
3.452,-0.258
3.456,-0.255
3.460,-0.268
3.464,-0.278
3.468,-0.282
3.472,-0.292
3.476,-0.285
3.480,-0.287
3.484,-0.273
3.488,-0.270
3.492,-0.280
3.496,-0.280
3.500,-0.275
3.504,-0.278
3.508,-0.275
3.512,-0.282
3.516,-0.260
3.520,-0.265
3.524,-0.260
3.528,-0.268
3.532,-0.273
3.536,-0.285
3.540,-0.275
3.544,-0.265
3.548,-0.258
3.552,-0.263
3.556,-0.255
3.560,-0.250
3.564,-0.253
3.568,-0.253
3.572,-0.250
3.576,-0.253
3.580,-0.228
3.584,-0.215
3.588,-0.195
3.592,-0.182
3.596,-0.172
3.600,-0.175
3.604,-0.182
3.608,-0.190
3.612,-0.177
3.616,-0.163
3.620,-0.138
3.624,-0.098
3.628,-0.115
3.632,-0.113
3.636,-0.128
3.640,-0.145
3.644,-0.172
3.648,-0.177
3.652,-0.193
3.656,-0.198
3.660,-0.198
3.664,-0.195
3.668,-0.203
3.672,-0.195
3.676,-0.210
3.680,-0.215
3.684,-0.215
3.688,-0.230
3.692,-0.245
3.696,-0.240
3.700,-0.245
3.704,-0.253
3.708,-0.247
3.712,-0.220
3.716,-0.210
3.720,-0.195
3.724,-0.185
3.728,-0.177
3.732,-0.165
3.736,-0.100
3.740,0.018
3.744,0.180
3.748,0.388
3.752,0.690
3.756,1.005
3.760,1.320
3.764,1.567
3.768,1.750
3.772,1.830
3.776,1.782
3.780,1.528
3.784,1.062
3.788,0.455
3.792,-0.120
3.796,-0.475
3.800,-0.537
3.804,-0.398
3.808,-0.235
3.812,-0.145
3.816,-0.138
3.820,-0.190
3.824,-0.255
3.828,-0.282
3.832,-0.292
3.836,-0.300
3.840,-0.292
3.844,-0.287
3.848,-0.292
3.852,-0.270
3.856,-0.280
3.860,-0.285
3.864,-0.300
3.868,-0.300
3.872,-0.295
3.876,-0.307
3.880,-0.297
3.884,-0.300
3.888,-0.292
3.892,-0.292
3.896,-0.310
3.900,-0.330
3.904,-0.328
3.908,-0.310
3.912,-0.307
3.916,-0.307
3.920,-0.307
3.924,-0.307
3.928,-0.305
3.932,-0.307
3.936,-0.307
3.940,-0.307
3.944,-0.292
3.948,-0.282
3.952,-0.278
3.956,-0.282
3.960,-0.273
3.964,-0.270
3.968,-0.250
3.972,-0.235
3.976,-0.205
3.980,-0.150
3.984,-0.095
3.988,-0.048
3.992,-0.003
3.996,0.033
4.000,0.070
4.004,0.113
4.008,0.155
4.012,0.207
4.016,0.237
4.020,0.265
4.024,0.278
4.028,0.242
4.032,0.215
4.036,0.175
4.040,0.128
4.044,0.085
4.048,0.058
4.052,0.010
4.056,-0.018
4.060,-0.058
4.064,-0.087
4.068,-0.130
4.072,-0.150
4.076,-0.163
4.080,-0.170
4.084,-0.172
4.088,-0.190
4.092,-0.195
4.096,-0.198
4.100,-0.217
4.104,-0.228
4.108,-0.217
4.112,-0.212
4.116,-0.203
4.120,-0.203
4.124,-0.210
4.128,-0.223
4.132,-0.233
4.136,-0.233
4.140,-0.245
4.144,-0.253
4.148,-0.233
4.152,-0.223
4.156,-0.230
4.160,-0.235
4.164,-0.230
4.168,-0.237
4.172,-0.250
4.176,-0.247
4.180,-0.235
4.184,-0.235
4.188,-0.233
4.192,-0.235
4.196,-0.258
4.200,-0.258
4.204,-0.255
4.208,-0.260
4.212,-0.255
4.216,-0.253
4.220,-0.242
4.224,-0.247
4.228,-0.247
4.232,-0.260
4.236,-0.255
4.240,-0.255
4.244,-0.265
4.248,-0.255
4.252,-0.242
4.256,-0.250
4.260,-0.240
4.264,-0.258
4.268,-0.245
4.272,-0.253
4.276,-0.247
4.280,-0.233
4.284,-0.223
4.288,-0.237
4.292,-0.240
4.296,-0.245
4.300,-0.247
4.304,-0.230
4.308,-0.245
4.312,-0.230
4.316,-0.228
4.320,-0.217
4.324,-0.207
4.328,-0.223
4.332,-0.233
4.336,-0.228
4.340,-0.233
4.344,-0.228
4.348,-0.205
4.352,-0.182
4.356,-0.170
4.360,-0.168
4.364,-0.175
4.368,-0.175
4.372,-0.163
4.376,-0.170
4.380,-0.145
4.384,-0.122
4.388,-0.095
4.392,-0.102
4.396,-0.105
4.400,-0.120
4.404,-0.142
4.408,-0.175
4.412,-0.175
4.416,-0.185
4.420,-0.175
4.424,-0.185
4.428,-0.182
4.432,-0.195
4.436,-0.220
4.440,-0.220
4.444,-0.240
4.448,-0.235
4.452,-0.235
4.456,-0.217
4.460,-0.230
4.464,-0.220
4.468,-0.223
4.472,-0.233
4.476,-0.228
4.480,-0.203
4.484,-0.200
4.488,-0.180
4.492,-0.160
4.496,-0.095
4.500,-0.007
4.504,0.130
4.508,0.340
4.512,0.605
4.516,0.917
4.520,1.248
4.524,1.522
4.528,1.720
4.532,1.808
4.536,1.722
4.540,1.417
4.544,0.900
4.548,0.242
4.552,-0.302
4.556,-0.565
4.560,-0.542
4.564,-0.370
4.568,-0.223
4.572,-0.160
4.576,-0.188
4.580,-0.245
4.584,-0.297
4.588,-0.300
4.592,-0.295
4.596,-0.300
4.600,-0.300
4.604,-0.310
4.608,-0.312
4.612,-0.312
4.616,-0.315
4.620,-0.312
4.624,-0.310
4.628,-0.312
4.632,-0.318
4.636,-0.333
4.640,-0.343
4.644,-0.343
4.648,-0.340
4.652,-0.320
4.656,-0.318
4.660,-0.330
4.664,-0.335
4.668,-0.335
4.672,-0.347
4.676,-0.340
4.680,-0.340
4.684,-0.318
4.688,-0.320
4.692,-0.318
4.696,-0.328
4.700,-0.333
4.704,-0.340
4.708,-0.333
4.712,-0.325
4.716,-0.330
4.720,-0.292
4.724,-0.290
4.728,-0.273
4.732,-0.255
4.736,-0.233
4.740,-0.200
4.744,-0.142
4.748,-0.080
4.752,-0.022
4.756,0.025
4.760,0.068
4.764,0.105
4.768,0.145
4.772,0.175
4.776,0.203
4.780,0.217
4.784,0.212
4.788,0.200
4.792,0.170
4.796,0.122
4.800,0.072
4.804,0.018
4.808,-0.018
4.812,-0.052
4.816,-0.070
4.820,-0.115
4.824,-0.147
4.828,-0.160
4.832,-0.188
4.836,-0.198
4.840,-0.217
4.844,-0.220
4.848,-0.210
4.852,-0.212
4.856,-0.217
4.860,-0.230
4.864,-0.230
4.868,-0.237
4.872,-0.250
4.876,-0.242
4.880,-0.230
4.884,-0.220
4.888,-0.210
4.892,-0.225
4.896,-0.233
4.900,-0.242
4.904,-0.250
4.908,-0.242
4.912,-0.233
4.916,-0.235
4.920,-0.230
4.924,-0.235
4.928,-0.235
4.932,-0.245
4.936,-0.250
4.940,-0.250
4.944,-0.245
4.948,-0.247
4.952,-0.230
4.956,-0.230
4.960,-0.245
4.964,-0.242
4.968,-0.255
4.972,-0.255
4.976,-0.260
4.980,-0.245
4.984,-0.250
4.988,-0.250
4.992,-0.245
4.996,-0.250
5.000,-0.245
5.004,-0.253
5.008,-0.263
5.012,-0.255
5.016,-0.237
5.020,-0.230
5.024,-0.233
5.028,-0.240
5.032,-0.245
5.036,-0.250
5.040,-0.255
5.044,-0.247
5.048,-0.230
5.052,-0.235
5.056,-0.233
5.060,-0.225
5.064,-0.242
5.068,-0.228
5.072,-0.240
5.076,-0.237
5.080,-0.223
5.084,-0.210
5.088,-0.200
5.092,-0.195
5.096,-0.205
5.100,-0.198
5.104,-0.188
5.108,-0.172
5.112,-0.147
5.116,-0.122
5.120,-0.120
5.124,-0.128
5.128,-0.145
5.132,-0.163
5.136,-0.150
5.140,-0.138
5.144,-0.098
5.148,-0.075
5.152,-0.058
5.156,-0.065
5.160,-0.087
5.164,-0.120
5.168,-0.138
5.172,-0.170
5.176,-0.190
5.180,-0.170
5.184,-0.160
5.188,-0.175
5.192,-0.170
5.196,-0.195
5.200,-0.235
5.204,-0.237
5.208,-0.233
5.212,-0.223
5.216,-0.207
5.220,-0.193
5.224,-0.200
5.228,-0.188
5.232,-0.195
5.236,-0.188
5.240,-0.180
5.244,-0.155
5.248,-0.102
5.252,-0.022
5.256,0.087
5.260,0.233
5.264,0.438
5.268,0.710
5.272,1.015
5.276,1.295
5.280,1.520
5.284,1.695
5.288,1.792
5.292,1.798
5.296,1.627
5.300,1.280
5.304,0.762
5.308,0.163
5.312,-0.315
5.316,-0.525
5.320,-0.500
5.324,-0.325
5.328,-0.182
5.332,-0.140
5.336,-0.165
5.340,-0.247
5.344,-0.287
5.348,-0.295
5.352,-0.287
5.356,-0.290
5.360,-0.278
5.364,-0.287
5.368,-0.295
5.372,-0.310
5.376,-0.307
5.380,-0.300
5.384,-0.307
5.388,-0.302
5.392,-0.302
5.396,-0.310
5.400,-0.320
5.404,-0.320
5.408,-0.320
5.412,-0.312
5.416,-0.318
5.420,-0.315
5.424,-0.328
5.428,-0.335
5.432,-0.338
5.436,-0.350
5.440,-0.343
5.444,-0.343
5.448,-0.333
5.452,-0.330
5.456,-0.328
5.460,-0.328
5.464,-0.338
5.468,-0.340
5.472,-0.335
5.476,-0.340
5.480,-0.333
5.484,-0.312
5.488,-0.285
5.492,-0.280
5.496,-0.265
5.500,-0.240
5.504,-0.225
5.508,-0.182
5.512,-0.152
5.516,-0.113
5.520,-0.075
5.524,-0.018
5.528,0.020
5.532,0.060
5.536,0.105
5.540,0.138
5.544,0.168
5.548,0.205
5.552,0.237
5.556,0.250
5.560,0.245
5.564,0.240
5.568,0.210
5.572,0.172
5.576,0.135
5.580,0.095
5.584,0.037
5.588,-0.005
5.592,-0.052
5.596,-0.098
5.600,-0.135
5.604,-0.150
5.608,-0.175
5.612,-0.188
5.616,-0.193
5.620,-0.190
5.624,-0.203
5.628,-0.215
5.632,-0.225
5.636,-0.217
5.640,-0.223
5.644,-0.223
5.648,-0.220
5.652,-0.212
5.656,-0.220
5.660,-0.223
5.664,-0.233
5.668,-0.240
5.672,-0.237
5.676,-0.237
5.680,-0.217
5.684,-0.220
5.688,-0.210
5.692,-0.217
5.696,-0.225
5.700,-0.240
5.704,-0.237
5.708,-0.235
5.712,-0.225
5.716,-0.223
5.720,-0.220
5.724,-0.217
5.728,-0.230
5.732,-0.240
5.736,-0.240
5.740,-0.237
5.744,-0.233
5.748,-0.230
5.752,-0.225
5.756,-0.237
5.760,-0.240
5.764,-0.235
5.768,-0.258
5.772,-0.240
5.776,-0.245
5.780,-0.237
5.784,-0.235
5.788,-0.223
5.792,-0.230
5.796,-0.245
5.800,-0.250
5.804,-0.250
5.808,-0.242
5.812,-0.237
5.816,-0.225
5.820,-0.225
5.824,-0.230
5.828,-0.220
5.832,-0.230
5.836,-0.233
5.840,-0.237
5.844,-0.233
5.848,-0.223
5.852,-0.220
5.856,-0.212
5.860,-0.207
5.864,-0.220
5.868,-0.215
5.872,-0.233
5.876,-0.225
5.880,-0.215
5.884,-0.203
5.888,-0.200
5.892,-0.198
5.896,-0.207
5.900,-0.210
5.904,-0.207
5.908,-0.193
5.912,-0.180
5.916,-0.168
5.920,-0.160
5.924,-0.165
5.928,-0.177
5.932,-0.168
5.936,-0.170
5.940,-0.150
5.944,-0.147
5.948,-0.140
5.952,-0.150
5.956,-0.155
5.960,-0.195
5.964,-0.212
5.968,-0.217
5.972,-0.200
5.976,-0.195
5.980,-0.180
5.984,-0.175
5.988,-0.180
5.992,-0.177
5.996,-0.205
6.000,-0.217
6.004,-0.233
6.008,-0.217
6.012,-0.207
6.016,-0.198
6.020,-0.185
6.024,-0.190
6.028,-0.182
6.032,-0.185
6.036,-0.160
6.040,-0.120
6.044,-0.037
6.048,0.058
6.052,0.210
6.056,0.425
6.060,0.693
6.064,0.990
6.068,1.262
6.072,1.500
6.076,1.673
6.080,1.788
6.084,1.788
6.088,1.590
6.092,1.173
6.096,0.598
6.100,0.000
6.104,-0.388
6.108,-0.537
6.112,-0.430
6.116,-0.260
6.120,-0.147
6.124,-0.165
6.128,-0.217
6.132,-0.278
6.136,-0.320
6.140,-0.330
6.144,-0.318
6.148,-0.302
6.152,-0.290
6.156,-0.290
6.160,-0.290
6.164,-0.318
6.168,-0.338
6.172,-0.338
6.176,-0.340
6.180,-0.350
6.184,-0.343
6.188,-0.338
6.192,-0.340
6.196,-0.352
6.200,-0.347
6.204,-0.372
6.208,-0.362
6.212,-0.360
6.216,-0.352
6.220,-0.357
6.224,-0.345
6.228,-0.360
6.232,-0.370
6.236,-0.375
6.240,-0.372
6.244,-0.370
6.248,-0.350
6.252,-0.355
6.256,-0.355
6.260,-0.355
6.264,-0.355
6.268,-0.352
6.272,-0.325
6.276,-0.300
6.280,-0.258
6.284,-0.215
6.288,-0.185
6.292,-0.142
6.296,-0.115
6.300,-0.052
6.304,-0.013
6.308,0.040
6.312,0.090
6.316,0.140
6.320,0.190
6.324,0.210
6.328,0.237
6.332,0.233
6.336,0.235
6.340,0.205
6.344,0.180
6.348,0.150
6.352,0.100
6.356,0.065
6.360,0.005
6.364,-0.037
6.368,-0.065
6.372,-0.105
6.376,-0.133
6.380,-0.135
6.384,-0.147
6.388,-0.172
6.392,-0.195
6.396,-0.203
6.400,-0.225
6.404,-0.225
6.408,-0.230
6.412,-0.230
6.416,-0.228
6.420,-0.217
6.424,-0.223
6.428,-0.228
6.432,-0.240
6.436,-0.240
6.440,-0.235
6.444,-0.235
6.448,-0.228
6.452,-0.212
6.456,-0.225
6.460,-0.242
6.464,-0.245
6.468,-0.245
6.472,-0.245
6.476,-0.237
6.480,-0.223
6.484,-0.223
6.488,-0.228
6.492,-0.245
6.496,-0.255
6.500,-0.255
6.504,-0.260
6.508,-0.253
6.512,-0.245
6.516,-0.242
6.520,-0.255
6.524,-0.240
6.528,-0.260
6.532,-0.278
6.536,-0.278
6.540,-0.282
6.544,-0.275
6.548,-0.268
6.552,-0.250
6.556,-0.258
6.560,-0.260
6.564,-0.260
6.568,-0.255
6.572,-0.268
6.576,-0.250
6.580,-0.258
6.584,-0.255
6.588,-0.247
6.592,-0.240
6.596,-0.250
6.600,-0.253
6.604,-0.258
6.608,-0.268
6.612,-0.255
6.616,-0.247
6.620,-0.235
6.624,-0.233
6.628,-0.242
6.632,-0.240
6.636,-0.245
6.640,-0.235
6.644,-0.230
6.648,-0.225
6.652,-0.217
6.656,-0.205
6.660,-0.205
6.664,-0.205
6.668,-0.200
6.672,-0.188
6.676,-0.188
6.680,-0.185
6.684,-0.180
6.688,-0.180
6.692,-0.172
6.696,-0.170
6.700,-0.165
6.704,-0.163
6.708,-0.172
6.712,-0.198
6.716,-0.203
6.720,-0.210
6.724,-0.220
6.728,-0.220
6.732,-0.210
6.736,-0.215
6.740,-0.207
6.744,-0.215
6.748,-0.220
6.752,-0.217
6.756,-0.235
6.760,-0.233
6.764,-0.242
6.768,-0.235
6.772,-0.237
6.776,-0.210
6.780,-0.205
6.784,-0.177
6.788,-0.182
6.792,-0.165
6.796,-0.142
6.800,-0.087
6.804,0.025
6.808,0.188
6.812,0.417
6.816,0.725
6.820,1.065
6.824,1.365
6.828,1.615
6.832,1.772
6.836,1.785
6.840,1.600
6.844,1.208
6.848,0.637
6.852,0.030
6.856,-0.407
6.860,-0.560
6.864,-0.475
6.868,-0.310
6.872,-0.188
6.876,-0.177
6.880,-0.203
6.884,-0.260
6.888,-0.307
6.892,-0.325
6.896,-0.323
6.900,-0.328
6.904,-0.330
6.908,-0.323
6.912,-0.320
6.916,-0.320
6.920,-0.310
6.924,-0.333
6.928,-0.340
6.932,-0.352
6.936,-0.352
6.940,-0.362
6.944,-0.365
6.948,-0.362
6.952,-0.355
6.956,-0.357
6.960,-0.365
6.964,-0.370
6.968,-0.360
6.972,-0.370
6.976,-0.372
6.980,-0.352
6.984,-0.355
6.988,-0.375
6.992,-0.372
6.996,-0.388
7.000,-0.385
7.004,-0.380
7.008,-0.380
7.012,-0.370
7.016,-0.357
7.020,-0.350
7.024,-0.347
7.028,-0.340
7.032,-0.305
7.036,-0.287
7.040,-0.245
7.044,-0.195
7.048,-0.147
7.052,-0.098
7.056,-0.040
7.060,0.003
7.064,0.055
7.068,0.095
7.072,0.140
7.076,0.177
7.080,0.215
7.084,0.242
7.088,0.253
7.092,0.228
7.096,0.200
7.100,0.145
7.104,0.110
7.108,0.068
7.112,0.025
7.116,-0.005
7.120,-0.045
7.124,-0.072
7.128,-0.117
7.132,-0.142
7.136,-0.165
7.140,-0.177
7.144,-0.177
7.148,-0.172
7.152,-0.185
7.156,-0.182
7.160,-0.200
7.164,-0.223
7.168,-0.223
7.172,-0.235
7.176,-0.220
7.180,-0.225
7.184,-0.203
7.188,-0.190
7.192,-0.195
7.196,-0.210
7.200,-0.215
7.204,-0.223
7.208,-0.237
7.212,-0.225
7.216,-0.212
7.220,-0.212
7.224,-0.215
7.228,-0.223
7.232,-0.235
7.236,-0.237
7.240,-0.247
7.244,-0.240
7.248,-0.228
7.252,-0.230
7.256,-0.237
7.260,-0.258
7.264,-0.250
7.268,-0.260
7.272,-0.255
7.276,-0.258
7.280,-0.253
7.284,-0.242
7.288,-0.245
7.292,-0.265
7.296,-0.265
7.300,-0.273
7.304,-0.263
7.308,-0.263
7.312,-0.258
7.316,-0.250
7.320,-0.237
7.324,-0.245
7.328,-0.253
7.332,-0.258
7.336,-0.265
7.340,-0.258
7.344,-0.242
7.348,-0.242
7.352,-0.230
7.356,-0.223
7.360,-0.228
7.364,-0.225
7.368,-0.237
7.372,-0.230
7.376,-0.233
7.380,-0.233
7.384,-0.217
7.388,-0.210
7.392,-0.207
7.396,-0.217
7.400,-0.225
7.404,-0.220
7.408,-0.217
7.412,-0.200
7.416,-0.193
7.420,-0.195
7.424,-0.182
7.428,-0.195
7.432,-0.205
7.436,-0.190
7.440,-0.180
7.444,-0.160
7.448,-0.150
7.452,-0.140
7.456,-0.142
7.460,-0.158
7.464,-0.145
7.468,-0.145
7.472,-0.135
7.476,-0.138
7.480,-0.145
7.484,-0.170
7.488,-0.172
7.492,-0.193
7.496,-0.193
7.500,-0.182
7.504,-0.172
7.508,-0.193
7.512,-0.177
7.516,-0.175
7.520,-0.180
7.524,-0.200
7.528,-0.217
7.532,-0.230
7.536,-0.235
7.540,-0.217
7.544,-0.200
7.548,-0.193
7.552,-0.177
7.556,-0.177
7.560,-0.177
7.564,-0.188
7.568,-0.170
7.572,-0.133
7.576,-0.075
7.580,0.007
7.584,0.140
7.588,0.323
7.592,0.547
7.596,0.848
7.600,1.157
7.604,1.445
7.608,1.660
7.612,1.808
7.616,1.758
7.620,1.510
7.624,1.022
7.628,0.393
7.632,-0.198
7.636,-0.545
7.640,-0.590
7.644,-0.445
7.648,-0.260
7.652,-0.150
7.656,-0.152
7.660,-0.215
7.664,-0.292
7.668,-0.328
7.672,-0.330
7.676,-0.320
7.680,-0.315
7.684,-0.297
7.688,-0.300
7.692,-0.310
7.696,-0.330
7.700,-0.333
7.704,-0.333
7.708,-0.343
7.712,-0.325
7.716,-0.320
7.720,-0.333
7.724,-0.333
7.728,-0.360
7.732,-0.350
7.736,-0.367
7.740,-0.365
7.744,-0.352
7.748,-0.355
7.752,-0.347
7.756,-0.360
7.760,-0.365
7.764,-0.380
7.768,-0.385
7.772,-0.370
7.776,-0.380
7.780,-0.370
7.784,-0.362
7.788,-0.372
7.792,-0.365
7.796,-0.383
7.800,-0.383
7.804,-0.378
7.808,-0.367
7.812,-0.345
7.816,-0.333
7.820,-0.305
7.824,-0.280
7.828,-0.263
7.832,-0.230
7.836,-0.188
7.840,-0.133
7.844,-0.080
7.848,-0.025
7.852,0.033
7.856,0.092
7.860,0.115
7.864,0.158
7.868,0.200
7.872,0.210
7.876,0.233
7.880,0.245
7.884,0.247
7.888,0.225
7.892,0.182
7.896,0.135
7.900,0.072
7.904,0.030
7.908,-0.007
7.912,-0.033
7.916,-0.060
7.920,-0.083
7.924,-0.117
7.928,-0.145
7.932,-0.165
7.936,-0.185
7.940,-0.190
7.944,-0.177
7.948,-0.185
7.952,-0.177
7.956,-0.177
7.960,-0.207
7.964,-0.205
7.968,-0.198
7.972,-0.200
7.976,-0.200
7.980,-0.193
7.984,-0.198
7.988,-0.195
7.992,-0.198
7.996,-0.198
8.000,-0.212
8.004,-0.215
8.008,-0.205
8.012,-0.203
8.016,-0.200
8.020,-0.200
8.024,-0.200
8.028,-0.212
8.032,-0.220
8.036,-0.230
8.040,-0.225
8.044,-0.217
8.048,-0.205
8.052,-0.198
8.056,-0.200
8.060,-0.210
8.064,-0.210
8.068,-0.228
8.072,-0.225
8.076,-0.225
8.080,-0.220
8.084,-0.215
8.088,-0.207
8.092,-0.230
8.096,-0.230
8.100,-0.233
8.104,-0.230
8.108,-0.223
8.112,-0.223
8.116,-0.210
8.120,-0.215
8.124,-0.207
8.128,-0.217
8.132,-0.225
8.136,-0.233
8.140,-0.233
8.144,-0.215
8.148,-0.205
8.152,-0.193
8.156,-0.198
8.160,-0.203
8.164,-0.212
8.168,-0.200
8.172,-0.210
8.176,-0.207
8.180,-0.190
8.184,-0.180
8.188,-0.182
8.192,-0.185
8.196,-0.190
8.200,-0.195
8.204,-0.200
8.208,-0.193
8.212,-0.185
8.216,-0.172
8.220,-0.158
8.224,-0.160
8.228,-0.163
8.232,-0.177
8.236,-0.193
8.240,-0.195
8.244,-0.172
8.248,-0.172
8.252,-0.155
8.256,-0.147
8.260,-0.128
8.264,-0.122
8.268,-0.120
8.272,-0.128
8.276,-0.128
8.280,-0.105
8.284,-0.087
8.288,-0.077
8.292,-0.090
8.296,-0.125
8.300,-0.168
8.304,-0.160
8.308,-0.170
8.312,-0.147
8.316,-0.135
8.320,-0.142
8.324,-0.142
8.328,-0.170
8.332,-0.182
8.336,-0.195
8.340,-0.188
8.344,-0.177
8.348,-0.158
8.352,-0.155
8.356,-0.140
8.360,-0.145
8.364,-0.140
8.368,-0.125
8.372,-0.090
8.376,-0.015
8.380,0.102
8.384,0.268
8.388,0.482
8.392,0.780
8.396,1.085
8.400,1.365
8.404,1.590
8.408,1.738
8.412,1.768
8.416,1.637
8.420,1.285
8.424,0.750
8.428,0.113
8.432,-0.390
8.436,-0.575
8.440,-0.507
8.444,-0.315
8.448,-0.172
8.452,-0.142
8.456,-0.193
8.460,-0.253
8.464,-0.318
8.468,-0.330
8.472,-0.333
8.476,-0.310
8.480,-0.297
8.484,-0.287
8.488,-0.297
8.492,-0.305
8.496,-0.330
8.500,-0.330
8.504,-0.333
8.508,-0.343
8.512,-0.333
8.516,-0.330
8.520,-0.333
8.524,-0.343
8.528,-0.335
8.532,-0.352
8.536,-0.360
8.540,-0.355
8.544,-0.352
8.548,-0.345
8.552,-0.340
8.556,-0.345
8.560,-0.355
8.564,-0.365
8.568,-0.360
8.572,-0.372
8.576,-0.378
8.580,-0.365
8.584,-0.367
8.588,-0.360
8.592,-0.383
8.596,-0.360
8.600,-0.383
8.604,-0.380
8.608,-0.380
8.612,-0.365
8.616,-0.360
8.620,-0.343
8.624,-0.340
8.628,-0.338
8.632,-0.310
8.636,-0.270
8.640,-0.242
8.644,-0.210
8.648,-0.163
8.652,-0.107
8.656,-0.052
8.660,-0.010
8.664,0.033
8.668,0.080
8.672,0.125
8.676,0.165
8.680,0.217
8.684,0.247
8.688,0.255
8.692,0.253
8.696,0.225
8.700,0.193
8.704,0.140
8.708,0.100
8.712,0.062
8.716,0.015
8.720,-0.018
8.724,-0.050
8.728,-0.090
8.732,-0.110
8.736,-0.128
8.740,-0.150
8.744,-0.155
8.748,-0.147
8.752,-0.155
8.756,-0.160
8.760,-0.170
8.764,-0.180
8.768,-0.177
8.772,-0.188
8.776,-0.185
8.780,-0.177
8.784,-0.168
8.788,-0.170
8.792,-0.180
8.796,-0.188
8.800,-0.188
8.804,-0.182
8.808,-0.185
8.812,-0.188
8.816,-0.175
8.820,-0.165
8.824,-0.175
8.828,-0.180
8.832,-0.200
8.836,-0.200
8.840,-0.193
8.844,-0.182
8.848,-0.188
8.852,-0.188
8.856,-0.198
8.860,-0.210
8.864,-0.215
8.868,-0.217
8.872,-0.220
8.876,-0.207
8.880,-0.207
8.884,-0.203
8.888,-0.203
8.892,-0.207
8.896,-0.220
8.900,-0.220
8.904,-0.220
8.908,-0.228
8.912,-0.220
8.916,-0.212
8.920,-0.198
8.924,-0.205
8.928,-0.200
8.932,-0.203
8.936,-0.205
8.940,-0.203
8.944,-0.200
8.948,-0.195
8.952,-0.193
8.956,-0.190
8.960,-0.180
8.964,-0.193
8.968,-0.200
8.972,-0.200
8.976,-0.200
8.980,-0.177
8.984,-0.155
8.988,-0.168
8.992,-0.160
8.996,-0.175
9.000,-0.177
9.004,-0.182
9.008,-0.175
9.012,-0.177
9.016,-0.160
9.020,-0.147
9.024,-0.170
9.028,-0.158
9.032,-0.172
9.036,-0.182
9.040,-0.177
9.044,-0.170
9.048,-0.158
9.052,-0.160
9.056,-0.147
9.060,-0.140
9.064,-0.140
9.068,-0.135
9.072,-0.130
9.076,-0.115
9.080,-0.117
9.084,-0.107
9.088,-0.085
9.092,-0.087
9.096,-0.090
9.100,-0.085
9.104,-0.105
9.108,-0.115
9.112,-0.125
9.116,-0.147
9.120,-0.147
9.124,-0.158
9.128,-0.135
9.132,-0.140
9.136,-0.147
9.140,-0.140
9.144,-0.140
9.148,-0.150
9.152,-0.150
9.156,-0.158
9.160,-0.160
9.164,-0.175
9.168,-0.177
9.172,-0.168
9.176,-0.152
9.180,-0.133
9.184,-0.117
9.188,-0.117
9.192,-0.107
9.196,-0.090
9.200,-0.055
9.204,0.022
9.208,0.150
9.212,0.315
9.216,0.545
9.220,0.838
9.224,1.125
9.228,1.365
9.232,1.558
9.236,1.702
9.240,1.778
9.244,1.712
9.248,1.448
9.252,0.990
9.256,0.405
9.260,-0.145
9.264,-0.470
9.268,-0.517
9.272,-0.378
9.276,-0.223
9.280,-0.128
9.284,-0.130
9.288,-0.190
9.292,-0.260
9.296,-0.297
9.300,-0.310
9.304,-0.292
9.308,-0.287
9.312,-0.280
9.316,-0.270
9.320,-0.287
9.324,-0.300
9.328,-0.315
9.332,-0.318
9.336,-0.330
9.340,-0.338
9.344,-0.333
9.348,-0.323
9.352,-0.328
9.356,-0.328
9.360,-0.347
9.364,-0.365
9.368,-0.367
9.372,-0.367
9.376,-0.370
9.380,-0.367
9.384,-0.360
9.388,-0.372
9.392,-0.378
9.396,-0.388
9.400,-0.395
9.404,-0.407
9.408,-0.412
9.412,-0.403
9.416,-0.390
9.420,-0.375
9.424,-0.385
9.428,-0.372
9.432,-0.370
9.436,-0.355
9.440,-0.335
9.444,-0.292
9.448,-0.253
9.452,-0.203
9.456,-0.158
9.460,-0.110
9.464,-0.058
9.468,-0.010
9.472,0.048
9.476,0.117
9.480,0.182
9.484,0.225
9.488,0.270
9.492,0.295
9.496,0.282
9.500,0.273
9.504,0.250
9.508,0.217
9.512,0.175
9.516,0.128
9.520,0.075
9.524,0.022
9.528,-0.015
9.532,-0.050
9.536,-0.083
9.540,-0.090
9.544,-0.105
9.548,-0.113
9.552,-0.128
9.556,-0.140
9.560,-0.152
9.564,-0.168
9.568,-0.160
9.572,-0.175
9.576,-0.172
9.580,-0.160
9.584,-0.170
9.588,-0.163
9.592,-0.165
9.596,-0.177
9.600,-0.170
9.604,-0.185
9.608,-0.182
9.612,-0.182
9.616,-0.175
9.620,-0.165
9.624,-0.170
9.628,-0.185
9.632,-0.185
9.636,-0.193
9.640,-0.198
9.644,-0.193
9.648,-0.182
9.652,-0.188
9.656,-0.188
9.660,-0.195
9.664,-0.210
9.668,-0.220
9.672,-0.220
9.676,-0.220
9.680,-0.212
9.684,-0.205
9.688,-0.207
9.692,-0.217
9.696,-0.228
9.700,-0.230
9.704,-0.228
9.708,-0.230
9.712,-0.225
9.716,-0.210
9.720,-0.210
9.724,-0.217
9.728,-0.230
9.732,-0.242
9.736,-0.230
9.740,-0.233
9.744,-0.228
9.748,-0.220
9.752,-0.207
9.756,-0.210
9.760,-0.200
9.764,-0.212
9.768,-0.217
9.772,-0.223
9.776,-0.220
9.780,-0.207
9.784,-0.182
9.788,-0.185
9.792,-0.190
9.796,-0.200
9.800,-0.207
9.804,-0.203
9.808,-0.203
9.812,-0.180
9.816,-0.182
9.820,-0.172
9.824,-0.172
9.828,-0.180
9.832,-0.188
9.836,-0.190
9.840,-0.195
9.844,-0.180
9.848,-0.165
9.852,-0.160
9.856,-0.165
9.860,-0.158
9.864,-0.168
9.868,-0.155
9.872,-0.152
9.876,-0.142
9.880,-0.122
9.884,-0.125
9.888,-0.122
9.892,-0.125
9.896,-0.120
9.900,-0.110
9.904,-0.107
9.908,-0.113
9.912,-0.120
9.916,-0.133
9.920,-0.147
9.924,-0.152
9.928,-0.150
9.932,-0.170
9.936,-0.145
9.940,-0.152
9.944,-0.152
9.948,-0.160
9.952,-0.165
9.956,-0.170
9.960,-0.200
9.964,-0.200
9.968,-0.200
9.972,-0.190
9.976,-0.177
9.980,-0.160
9.984,-0.147
9.988,-0.145
9.992,-0.142
9.996,-0.128
